Voltage (V)	Current (A)	Current Density (A/m^2)	 Dividing Wavelength (nm) = 800  Light Power Density (W/m^2) = 1076.543839  Total Light Power Density (W/m^2) = 1076.543839	
-0.199940	-0.000114	-14.194663
-0.193258	-0.000115	-14.315900
-0.186542	-0.000115	-14.360925
-0.179806	-0.000114	-14.277425
-0.173101	-0.000114	-14.207450
-0.166389	-0.000114	-14.270125
-0.159681	-0.000115	-14.337525
-0.152935	-0.000113	-14.122575
-0.146232	-0.000115	-14.362500
-0.139526	-0.000115	-14.332075
-0.132848	-0.000114	-14.226100
-0.126072	-0.000113	-14.158850
-0.119394	-0.000113	-14.177250
-0.112693	-0.000114	-14.259163
-0.105985	-0.000112	-14.047450
-0.099278	-0.000114	-14.273862
-0.092534	-0.000114	-14.196438
-0.085829	-0.000112	-13.979638
-0.079124	-0.000113	-14.134375
-0.072447	-0.000114	-14.236725
-0.065672	-0.000114	-14.205238
-0.058995	-0.000113	-14.099488
-0.052291	-0.000113	-14.156475
-0.045584	-0.000113	-14.111000
-0.038871	-0.000113	-14.127275
-0.032129	-0.000113	-14.145200
-0.025422	-0.000112	-14.006362
-0.018720	-0.000112	-13.986700
-0.012043	-0.000113	-14.081288
-0.005263	-0.000113	-14.099300
0.001379	-0.000111	-13.815750
0.008085	-0.000112	-14.045638
0.014792	-0.000113	-14.094537
0.021531	-0.000111	-13.895162
0.028248	-0.000113	-14.073562
0.034916	-0.000113	-14.102362
0.041625	-0.000110	-13.713712
0.048331	-0.000111	-13.917863
0.055078	-0.000110	-13.743037
0.061787	-0.000110	-13.773862
0.068494	-0.000111	-13.895437
0.075165	-0.000112	-14.023238
0.081942	-0.000111	-13.818875
0.088621	-0.000111	-13.889350
0.095328	-0.000111	-13.835675
0.102036	-0.000112	-14.005537
0.108741	-0.000111	-13.826763
0.115478	-0.000108	-13.532488
0.122196	-0.000110	-13.744900
0.128871	-0.000108	-13.536725
0.135576	-0.000110	-13.730075
0.142317	-0.000110	-13.703513
0.149030	-0.000111	-13.832300
0.155739	-0.000109	-13.620538
0.162446	-0.000109	-13.674200
0.169187	-0.000109	-13.612525
0.175890	-0.000111	-13.821450
0.182601	-0.000109	-13.593563
0.189281	-0.000109	-13.565525
0.195986	-0.000108	-13.486688
0.202731	-0.000109	-13.613238
0.209437	-0.000107	-13.419075
0.216149	-0.000108	-13.516063
0.222858	-0.000108	-13.503475
0.229598	-0.000107	-13.393712
0.236302	-0.000107	-13.436162
0.242983	-0.000107	-13.383025
0.249692	-0.000106	-13.282362
0.256429	-0.000107	-13.345937
0.263136	-0.000109	-13.580138
0.269845	-0.000106	-13.219475
0.276554	-0.000106	-13.205725
0.283227	-0.000107	-13.386250
0.290002	-0.000105	-13.186162
0.296674	-0.000107	-13.347238
0.303385	-0.000104	-13.012475
0.310096	-0.000105	-13.110962
0.316836	-0.000104	-13.051325
0.323538	-0.000103	-12.937188
0.330252	-0.000105	-13.111100
0.336934	-0.000104	-13.009975
0.343637	-0.000103	-12.855475
0.350379	-0.000103	-12.877375
0.357085	-0.000103	-12.862937
0.363792	-0.000102	-12.705988
0.370538	-0.000102	-12.760713
0.377277	-0.000100	-12.546575
0.383982	-9.959305E-5	-12.449131
0.390654	-9.744441E-5	-12.180551
0.397352	-9.867897E-5	-12.334871
0.404106	-9.705958E-5	-12.132447
0.410808	-9.622071E-5	-12.027589
0.417509	-9.623809E-5	-12.029761
0.424231	-9.357374E-5	-11.696718
0.430934	-9.240847E-5	-11.551059
0.437672	-9.182506E-5	-11.478133
0.444388	-8.947798E-5	-11.184748
0.451051	-8.709573E-5	-10.886966
0.457765	-8.555302E-5	-10.694128
0.464514	-8.234294E-5	-10.292868
0.471217	-7.904758E-5	-9.880948
0.477922	-7.787484E-5	-9.734355
0.484630	-7.334783E-5	-9.168479
0.491366	-6.978597E-5	-8.723246
0.498081	-6.535467E-5	-8.169334
0.504755	-6.035787E-5	-7.544734
0.511457	-5.318752E-5	-6.648440
0.518158	-4.680186E-5	-5.850233
0.524913	-3.741914E-5	-4.677392
0.531617	-2.819476E-5	-3.524345
0.538316	-1.808161E-5	-2.260201
0.544999	-7.711362E-6	-0.963920
0.551752	5.394319E-6	0.674290
0.558413	2.152323E-5	2.690404
0.565118	3.939958E-5	4.924948
0.571825	5.882956E-5	7.353695
0.578528	8.138708E-5	10.173385
0.585286	0.000107	13.381188
0.591997	0.000135	16.863088
0.598680	0.000167	20.825588
0.605383	0.000202	25.271525
0.612124	0.000241	30.173238
0.618835	0.000284	35.479650
0.625540	0.000332	41.453888
0.632248	0.000383	47.856763
0.638984	0.000439	54.906550
0.645697	0.000501	62.624725
0.652373	0.000567	70.837200
0.659082	0.000638	79.714150
0.665788	0.000714	89.187538
0.672518	0.000796	99.445562
0.679222	0.000882	110.285063
0.685934	0.000975	121.820600
0.692653	0.001072	133.993250
0.699421	0.001176	146.946250
0.706136	0.001284	160.490125
0.712816	0.001397	174.629500
0.719518	0.001516	189.452500
0.726234	0.001640	204.946500
0.732970	0.001769	221.142125
0.739682	0.001903	237.907500
0.746397	0.002042	255.295375
0.753071	0.002185	273.179500
0.759844	0.002335	291.925125
0.766517	0.002488	311.010875
0.773225	0.002646	330.710250
0.779935	0.002808	350.969500
0.786680	0.002975	371.896500
0.793382	0.003146	393.203625
0.800092	0.003320	415.058125
