Voltage (V)	Current (A)	Current Density (A/m^2)	 Dividing Wavelength (nm) = 800  Light Power Density (W/m^2) = 1076.543839  Total Light Power Density (W/m^2) = 1076.543839	
-0.199895	-0.000117	-14.578263
-0.193217	-0.000116	-14.504275
-0.186497	-0.000116	-14.509400
-0.179761	-0.000115	-14.392000
-0.173053	-0.000116	-14.450100
-0.166343	-0.000115	-14.377588
-0.159635	-0.000115	-14.432538
-0.152895	-0.000116	-14.440000
-0.146187	-0.000115	-14.382625
-0.139481	-0.000115	-14.343350
-0.132805	-0.000114	-14.280888
-0.126029	-0.000115	-14.362512
-0.119351	-0.000114	-14.272300
-0.112646	-0.000116	-14.556400
-0.105940	-0.000115	-14.371438
-0.099233	-0.000116	-14.515225
-0.092487	-0.000114	-14.297225
-0.085784	-0.000113	-14.134225
-0.079081	-0.000115	-14.369537
-0.072400	-0.000112	-14.002850
-0.065629	-0.000114	-14.273713
-0.058951	-0.000114	-14.248425
-0.052248	-0.000115	-14.369713
-0.045535	-0.000117	-14.630000
-0.038827	-0.000115	-14.314063
-0.032091	-0.000114	-14.249250
-0.025382	-0.000112	-13.984900
-0.018674	-0.000111	-13.898763
-0.011997	-0.000112	-13.978587
-0.005219	-0.000113	-14.151363
0.001415	-0.000112	-14.015175
0.008118	-0.000114	-14.272725
0.014828	-0.000113	-14.079125
0.021572	-0.000113	-14.072463
0.028287	-0.000110	-13.812188
0.034954	-0.000112	-14.052912
0.041663	-0.000113	-14.170525
0.048372	-0.000113	-14.114788
0.055122	-0.000112	-13.966538
0.061828	-0.000111	-13.916375
0.068534	-0.000112	-14.029250
0.075206	-0.000112	-13.955275
0.081979	-0.000113	-14.091400
0.088660	-0.000112	-14.030638
0.095370	-0.000112	-14.002512
0.102076	-0.000112	-14.026763
0.108782	-0.000112	-14.033888
0.115524	-0.000109	-13.620225
0.122238	-0.000111	-13.816088
0.128910	-0.000111	-13.916513
0.135612	-0.000111	-13.911000
0.142352	-0.000112	-14.048225
0.149072	-0.000110	-13.779288
0.155779	-0.000111	-13.889475
0.162490	-0.000111	-13.892075
0.169230	-0.000109	-13.575813
0.175932	-0.000111	-13.893338
0.182650	-0.000109	-13.676963
0.189324	-0.000110	-13.763013
0.196035	-0.000111	-13.843425
0.202772	-0.000110	-13.755925
0.209484	-0.000111	-13.821513
0.216200	-0.000110	-13.790500
0.222906	-0.000110	-13.761662
0.229646	-0.000109	-13.636113
0.236353	-0.000109	-13.604450
0.243030	-0.000109	-13.628213
0.249743	-0.000107	-13.374413
0.256472	-0.000109	-13.589350
0.263180	-0.000109	-13.611188
0.269886	-0.000108	-13.485587
0.276598	-0.000107	-13.416963
0.283273	-0.000107	-13.337338
0.290044	-0.000108	-13.440338
0.296720	-0.000107	-13.367800
0.303433	-0.000107	-13.395613
0.310143	-0.000107	-13.413000
0.316885	-0.000106	-13.207675
0.323581	-0.000105	-13.110962
0.330302	-0.000105	-13.144113
0.336983	-0.000106	-13.201337
0.343682	-0.000105	-13.116650
0.350426	-0.000104	-13.000613
0.357130	-0.000105	-13.119825
0.363836	-0.000104	-12.994763
0.370613	-0.000102	-12.792188
0.377397	-0.000101	-12.687438
0.383999	-0.000102	-12.795288
0.390672	-0.000101	-12.564475
0.397386	-9.979340E-5	-12.474175
0.404131	-0.000102	-12.691275
0.410839	-0.000100	-12.530800
0.417533	-9.683495E-5	-12.104369
0.424262	-9.500062E-5	-11.875077
0.430964	-9.630100E-5	-12.037625
0.437700	-9.430553E-5	-11.788191
0.444412	-9.475638E-5	-11.844548
0.451079	-9.350868E-5	-11.688585
0.457786	-8.979788E-5	-11.224735
0.464541	-8.911193E-5	-11.138991
0.471251	-8.703075E-5	-10.878844
0.477960	-8.317630E-5	-10.397037
0.484662	-8.166601E-5	-10.208251
0.491404	-7.867391E-5	-9.834239
0.498114	-7.678913E-5	-9.598641
0.504795	-7.099147E-5	-8.873934
0.511497	-6.685386E-5	-8.356732
0.518193	-6.290340E-5	-7.862925
0.524951	-5.686287E-5	-7.107859
0.531640	-4.770112E-5	-5.962640
0.538361	-4.175100E-5	-5.218875
0.545034	-3.181823E-5	-3.977279
0.551806	-1.930429E-5	-2.413036
0.558515	-7.987738E-6	-0.998467
0.565086	9.493191E-6	1.186649
0.571887	2.477287E-5	3.096609
0.578576	4.590451E-5	5.738064
0.585319	7.012746E-5	8.765933
0.592033	9.602698E-5	12.003373
0.598730	0.000127	15.873813
0.605434	0.000161	20.152738
0.612180	0.000201	25.169563
0.618893	0.000246	30.703125
0.625602	0.000294	36.793675
0.632313	0.000351	43.841538
0.639041	0.000412	51.545012
0.645765	0.000479	59.923662
0.652430	0.000554	69.210688
0.659138	0.000635	79.385925
0.665843	0.000723	90.391163
0.672572	0.000819	102.401250
0.679287	0.000921	115.095600
0.685998	0.001031	128.829875
0.692715	0.001148	143.489375
0.699485	0.001273	159.115875
0.706200	0.001404	175.497125
0.712878	0.001541	192.687500
0.719584	0.001686	210.807500
0.726294	0.001838	229.779625
0.733037	0.001997	249.667625
0.739753	0.002162	270.258375
0.746470	0.002333	291.641125
0.753139	0.002509	313.645125
0.759911	0.002693	336.680625
0.766581	0.002881	360.106875
0.773296	0.003075	384.332250
0.780003	0.003274	409.198875
0.786749	0.003479	434.852625
0.793451	0.003688	460.955750
0.800156	0.003901	487.658875
