Voltage (V)	Current (A)	Current Density (A/m^2)	 Dividing Wavelength (nm) = 610  Light Power Density (W/m^2) = 1107.265488  Total Light Power Density (W/m^2) = 1107.265488	
-0.199861	-0.000767	-95.813400
-0.189782	-0.000762	-95.198487
-0.179733	-0.000759	-94.919525
-0.169621	-0.000762	-95.270437
-0.159501	-0.000755	-94.424675
-0.149466	-0.000759	-94.824775
-0.139350	-0.000758	-94.808675
-0.129276	-0.000758	-94.752813
-0.119223	-0.000753	-94.128513
-0.109114	-0.000753	-94.165350
-0.099005	-0.000752	-94.055537
-0.088962	-0.000750	-93.801300
-0.078853	-0.000754	-94.257450
-0.068774	-0.000750	-93.760300
-0.058658	-0.000756	-94.504225
-0.048608	-0.000757	-94.628113
-0.038502	-0.000751	-93.906963
-0.028396	-0.000751	-93.858087
-0.018353	-0.000746	-93.289000
-0.008267	-0.000742	-92.726225
0.001801	-0.000740	-92.442350
0.011850	-0.000742	-92.784825
0.021922	-0.000740	-92.482075
0.032038	-0.000739	-92.374788
0.042087	-0.000741	-92.685450
0.052201	-0.000739	-92.313163
0.062284	-0.000743	-92.816563
0.072359	-0.000738	-92.195813
0.082435	-0.000735	-91.873525
0.092552	-0.000734	-91.731487
0.102599	-0.000724	-90.508688
0.112708	-0.000726	-90.793413
0.122791	-0.000732	-91.561725
0.132834	-0.000726	-90.718950
0.142940	-0.000726	-90.753338
0.153057	-0.000720	-89.966500
0.163143	-0.000714	-89.264850
0.173182	-0.000711	-88.921288
0.183303	-0.000718	-89.724188
0.193411	-0.000719	-89.877125
0.203459	-0.000715	-89.338250
0.213541	-0.000716	-89.484588
0.223653	-0.000713	-89.062688
0.233698	-0.000709	-88.621138
0.243806	-0.000711	-88.888863
0.253887	-0.000701	-87.661725
0.263961	-0.000709	-88.603138
0.274047	-0.000698	-87.276063
0.284158	-0.000698	-87.286150
0.294206	-0.000697	-87.169975
0.304308	-0.000697	-87.103800
0.314389	-0.000689	-86.133575
0.324444	-0.000691	-86.435138
0.334556	-0.000689	-86.160100
0.344665	-0.000685	-85.654412
0.354709	-0.000679	-84.902175
0.364790	-0.000680	-84.981150
0.374901	-0.000676	-84.464138
0.384950	-0.000670	-83.691213
0.395059	-0.000673	-84.173613
0.405139	-0.000665	-83.181625
0.415246	-0.000664	-82.990600
0.425296	-0.000659	-82.429362
0.435412	-0.000658	-82.224275
0.445487	-0.000660	-82.545313
0.455569	-0.000660	-82.499875
0.465644	-0.000649	-81.113362
0.475761	-0.000643	-80.349913
0.485800	-0.000643	-80.357925
0.495921	-0.000638	-79.806350
0.506001	-0.000632	-79.027963
0.516042	-0.000630	-78.776738
0.526154	-0.000623	-77.912300
0.536261	-0.000620	-77.531550
0.546312	-0.000613	-76.622550
0.556392	-0.000610	-76.278438
0.566504	-0.000605	-75.658200
0.576544	-0.000597	-74.601400
0.586656	-0.000588	-73.539788
0.596737	-0.000586	-73.307913
0.606828	-0.000577	-72.159037
0.616902	-0.000568	-71.004850
0.627010	-0.000563	-70.321750
0.637055	-0.000547	-68.315187
0.647171	-0.000538	-67.213400
0.657254	-0.000531	-66.426988
0.667361	-0.000515	-64.426575
0.677408	-0.000496	-61.996763
0.687516	-0.000485	-60.573237
0.697593	-0.000462	-57.764837
0.707644	-0.000438	-54.732863
0.717756	-0.000415	-51.896212
0.727873	-0.000381	-47.566550
0.737918	-0.000343	-42.824962
0.747998	-0.000299	-37.424025
0.758102	-0.000244	-30.479588
0.768153	-0.000176	-22.027162
0.778334	-9.570501E-5	-11.963126
0.788362	-1.244034E-6	-0.155504
0.798403	0.000109	13.570425
0.808466	0.000236	29.447938
0.818585	0.000381	47.618325
0.828638	0.000548	68.520038
0.838746	0.000733	91.685175
0.848824	0.000938	117.245213
0.858907	0.001159	144.932875
0.869024	0.001401	175.165875
0.879142	0.001660	207.525625
0.889229	0.001933	241.647750
0.899274	0.002220	277.459125
0.909388	0.002523	315.321125
0.919498	0.002838	354.739500
0.929542	0.003164	395.459625
0.939661	0.003502	437.765750
0.949735	0.003850	481.219500
0.959778	0.004206	525.758250
0.969886	0.004573	571.654875
0.980002	0.004949	618.664125
0.990041	0.005330	666.267750
1.000128	0.005720	714.983750
